Anatase
Wavelength = 1.54059
10.017	125.44
10.07	125.44
10.123	121.00
10.176	118.81
10.229	127.69
10.282	136.89
10.335	123.21
10.388	112.36
10.441	114.49
10.494	123.21
10.547	123.21
10.6	127.69
10.653	129.96
10.706	116.64
10.759	98.01
10.812	98.01
10.865	100.00
10.918	112.36
10.971	125.44
11.024	121.00
11.077	116.64
11.13	121.00
11.183	129.96
11.236	125.44
11.289	108.16
11.342	102.01
11.395	102.01
11.448	96.04
11.501	112.36
11.554	110.25
11.607	96.04
11.66	98.01
11.713	106.09
11.766	98.01
11.819	106.09
11.872	102.01
11.925	96.04
11.978	96.04
12.031	104.04
12.084	98.01
12.137	104.04
12.19	100.00
12.243	100.00
12.296	106.09
12.349	116.64
12.402	118.81
12.455	102.01
12.508	102.01
12.561	96.04
12.614	96.04
12.667	104.04
12.72	88.36
12.773	94.09
12.826	92.16
12.879	88.36
12.932	92.16
12.985	86.49
13.038	88.36
13.091	88.36
13.144	88.36
13.197	70.56
13.25	82.81
13.303	98.01
13.356	73.96
13.409	68.89
13.462	67.24
13.515	79.21
13.568	70.56
13.621	72.25
13.674	77.44
13.727	65.61
13.78	82.81
13.833	73.96
13.886	72.25
13.939	65.61
13.992	70.56
14.045	65.61
14.098	72.25
14.151	68.89
14.204	57.76
14.257	62.41
14.31	60.84
14.363	67.24
14.416	67.24
14.469	65.61
14.522	62.41
14.575	73.96
14.628	96.04
14.681	56.25
14.734	65.61
14.787	70.56
14.84	54.76
14.893	62.41
14.946	57.76
14.999	56.25
15.052	67.24
15.105	59.29
15.158	70.56
15.211	64.00
15.264	67.24
15.317	70.56
15.37	64.00
15.423	57.76
15.476	56.25
15.529	62.41
15.582	57.76
15.635	59.29
15.688	51.84
15.741	54.76
15.794	50.41
15.847	49.00
15.9	46.24
15.953	53.29
16.006	50.41
16.059	51.84
16.112	54.76
16.165	56.25
16.218	53.29
16.271	49.00
16.324	51.84
16.377	56.25
16.43	60.84
16.483	57.76
16.536	57.76
16.589	53.29
16.642	47.61
16.695	47.61
16.748	47.61
16.801	49.00
16.854	49.00
16.907	50.41
16.96	56.25
17.013	59.29
17.066	49.00
17.119	51.84
17.172	59.29
17.225	53.29
17.278	54.76
17.331	46.24
17.384	44.89
17.437	49.00
17.49	47.61
17.543	56.25
17.596	50.41
17.649	50.41
17.702	54.76
17.755	46.24
17.808	47.61
17.861	54.76
17.914	46.24
17.967	46.24
18.02	44.89
18.073	51.84
18.126	43.56
18.179	42.25
18.232	44.89
18.285	34.81
18.338	42.25
18.391	43.56
18.444	40.96
18.497	47.61
18.55	42.25
18.603	46.24
18.656	36.00
18.709	53.29
18.762	38.44
18.815	43.56
18.868	43.56
18.921	36.00
18.974	42.25
19.027	49.00
19.08	33.64
19.133	44.89
19.186	51.84
19.239	40.96
19.292	47.61
19.345	44.89
19.398	43.56
19.451	47.61
19.504	47.61
19.557	40.96
19.61	38.44
19.663	37.21
19.716	37.21
19.769	43.56
19.822	43.56
19.875	30.25
19.928	39.69
19.981	28.09
20.034	46.24
20.087	33.64
20.14	34.81
20.193	37.21
20.246	31.36
20.299	36.00
20.352	51.84
20.405	40.96
20.458	31.36
20.511	36.00
20.564	33.64
20.617	36.00
20.67	28.09
20.723	37.21
20.776	38.44
20.829	34.81
20.882	39.69
20.935	36.00
20.988	27.04
21.041	29.16
21.094	34.81
21.147	30.25
21.2	29.16
21.253	43.56
21.306	36.00
21.359	36.00
21.412	34.81
21.465	32.49
21.518	30.25
21.571	33.64
21.624	29.16
21.677	29.16
21.73	31.36
21.783	36.00
21.836	38.44
21.889	34.81
21.942	32.49
21.995	33.64
22.048	37.21
22.101	31.36
22.154	27.04
22.207	22.09
22.26	27.04
22.313	32.49
22.366	29.16
22.419	28.09
22.472	29.16
22.525	32.49
22.578	31.36
22.631	37.21
22.684	42.25
22.737	36.00
22.79	29.16
22.843	31.36
22.896	31.36
22.949	31.36
23.002	30.25
23.055	31.36
23.108	33.64
23.161	32.49
23.214	28.09
23.267	31.36
23.32	33.64
23.373	34.81
23.426	38.44
23.479	43.56
23.532	53.29
23.585	42.25
23.638	39.69
23.691	44.89
23.744	43.56
23.797	40.96
23.85	46.24
23.903	44.89
23.956	47.61
24.009	49.00
24.062	54.76
24.115	53.29
24.168	53.29
24.221	51.84
24.274	54.76
24.327	79.21
24.38	72.25
24.433	79.21
24.486	84.64
24.539	88.36
24.592	102.01
24.645	116.64
24.698	153.76
24.751	166.41
24.804	204.49
24.857	234.09
24.91	278.89
24.963	400.00
25.016	547.56
25.069	750.76
25.122	985.96
25.175	1288.81
25.228	1428.84
25.281	1521.00
25.334	1339.56
25.387	1176.49
25.44	906.01
25.493	702.25
25.546	529.00
25.599	368.64
25.652	259.21
25.705	207.36
25.758	171.61
25.811	139.24
25.864	116.64
25.917	96.04
25.97	96.04
26.023	79.21
26.076	68.89
26.129	70.56
26.182	68.89
26.235	57.76
26.288	62.41
26.341	57.76
26.394	62.41
26.447	42.25
26.5	37.21
26.553	50.41
26.606	50.41
26.659	54.76
26.712	49.00
26.765	49.00
26.818	51.84
26.871	50.41
26.924	40.96
26.977	47.61
27.03	51.84
27.083	56.25
27.136	59.29
27.189	72.25
27.242	110.25
27.295	153.76
27.348	190.44
27.401	219.04
27.454	225.00
27.507	156.25
27.56	108.16
27.613	81.00
27.666	70.56
27.719	53.29
27.772	43.56
27.825	44.89
27.878	37.21
27.931	37.21
27.984	33.64
28.037	39.69
28.09	34.81
28.143	25.00
28.196	28.09
28.249	32.49
28.302	32.49
28.355	26.01
28.408	20.25
28.461	17.64
28.514	18.49
28.567	23.04
28.62	25.00
28.673	23.04
28.726	26.01
28.779	25.00
28.832	22.09
28.885	23.04
28.938	20.25
28.991	17.64
29.044	15.21
29.097	18.49
29.15	15.21
29.203	16.81
29.256	24.01
29.309	27.04
29.362	21.16
29.415	20.25
29.468	17.64
29.521	14.44
29.574	14.44
29.627	21.16
29.68	23.04
29.733	21.16
29.786	20.25
29.839	17.64
29.892	11.56
29.945	14.44
29.998	15.21
30.051	14.44
30.104	13.69
30.157	17.64
30.21	14.44
30.263	13.69
30.316	14.44
30.369	18.49
30.422	16.81
30.475	16.81
30.528	12.96
30.581	13.69
30.634	15.21
30.687	21.16
30.74	15.21
30.793	18.49
30.846	13.69
30.899	12.25
30.952	22.09
31.005	18.49
31.058	14.44
31.111	18.49
31.164	20.25
31.217	10.24
31.27	16.00
31.323	23.04
31.376	19.36
31.429	16.00
31.482	15.21
31.535	18.49
31.588	12.25
31.641	10.24
31.694	15.21
31.747	19.36
31.8	13.69
31.853	12.25
31.906	23.04
31.959	17.64
32.012	15.21
32.065	12.96
32.118	20.25
32.171	17.64
32.224	16.81
32.277	12.25
32.33	16.81
32.383	15.21
32.436	17.64
32.489	6.76
32.542	10.89
32.595	17.64
32.648	14.44
32.701	10.89
32.754	15.21
32.807	15.21
32.86	13.69
32.913	11.56
32.966	18.49
33.019	12.96
33.072	9.00
33.125	16.00
33.178	17.64
33.231	22.09
33.284	21.16
33.337	15.21
33.39	11.56
33.443	16.81
33.496	14.44
33.549	10.24
33.602	5.76
33.655	9.00
33.708	10.24
33.761	16.00
33.814	15.21
33.867	9.00
33.92	13.69
33.973	12.96
34.026	7.29
34.079	11.56
34.132	13.69
34.185	13.69
34.238	11.56
34.291	11.56
34.344	9.61
34.397	12.25
34.45	10.89
34.503	11.56
34.556	15.21
34.609	13.69
34.662	12.96
34.715	19.36
34.768	23.04
34.821	21.16
34.874	15.21
34.927	9.00
34.98	14.44
35.033	19.36
35.086	15.21
35.139	15.21
35.192	16.00
35.245	17.64
35.298	22.09
35.351	24.01
35.404	13.69
35.457	18.49
35.51	17.64
35.563	16.00
35.616	19.36
35.669	28.09
35.722	22.09
35.775	39.69
35.828	40.96
35.881	53.29
35.934	68.89
35.987	82.81
36.04	98.01
36.093	92.16
36.146	82.81
36.199	62.41
36.252	57.76
36.305	36.00
36.358	30.25
36.411	36.00
36.464	31.36
36.517	27.04
36.57	43.56
36.623	49.00
36.676	57.76
36.729	67.24
36.782	67.24
36.835	73.96
36.888	104.04
36.941	90.25
36.994	104.04
37.047	106.09
37.1	77.44
37.153	94.09
37.206	64.00
37.259	51.84
37.312	68.89
37.365	70.56
37.418	90.25
37.471	82.81
37.524	134.56
37.577	179.56
37.63	198.81
37.683	240.25
37.736	262.44
37.789	278.89
37.842	249.64
37.895	225.00
37.948	196.00
38.001	171.61
38.054	156.25
38.107	112.36
38.16	86.49
38.213	79.21
38.266	81.00
38.319	86.49
38.372	79.21
38.425	88.36
38.478	92.16
38.531	110.25
38.584	102.01
38.637	100.00
38.69	67.24
38.743	54.76
38.796	56.25
38.849	43.56
38.902	33.64
38.955	33.64
39.008	36.00
39.061	37.21
39.114	38.44
39.167	32.49
39.22	30.25
39.273	31.36
39.326	28.09
39.379	19.36
39.432	14.44
39.485	14.44
39.538	11.56
39.591	16.00
39.644	17.64
39.697	13.69
39.75	13.69
39.803	12.25
39.856	12.25
39.909	15.21
39.962	12.96
40.015	9.00
40.068	12.25
40.121	15.21
40.174	12.96
40.227	10.89
40.28	12.96
40.333	17.64
40.386	13.69
40.439	10.24
40.492	9.61
40.545	7.29
40.598	12.25
40.651	14.44
40.704	10.24
40.757	9.61
40.81	14.44
40.863	15.21
40.916	16.81
40.969	20.25
41.022	23.04
41.075	36.00
41.128	34.81
41.181	39.69
41.234	43.56
41.287	37.21
41.34	29.16
41.393	17.64
41.446	16.00
41.499	16.00
41.552	13.69
41.605	15.21
41.658	8.41
41.711	7.29
41.764	9.61
41.817	10.89
41.87	6.76
41.923	7.84
41.976	4.84
42.029	19.36
42.082	7.84
42.135	10.89
42.188	7.84
42.241	10.24
42.294	10.24
42.347	7.29
42.4	10.89
42.453	8.41
42.506	9.00
42.559	13.69
42.612	10.24
42.665	10.24
42.718	7.29
42.771	11.56
42.824	9.00
42.877	10.24
42.93	13.69
42.983	16.00
43.036	5.76
43.089	4.00
43.142	6.76
43.195	6.76
43.248	4.41
43.301	9.61
43.354	0.64
43.407	9.00
43.46	12.96
43.513	9.00
43.566	10.89
43.619	11.56
43.672	13.69
43.725	5.76
43.778	16.00
43.831	16.81
43.884	20.25
43.937	19.36
43.99	22.09
44.043	24.01
44.096	16.81
44.149	13.69
44.202	10.24
44.255	13.69
44.308	17.64
44.361	4.84
44.414	5.29
44.467	5.76
44.52	6.76
44.573	7.84
44.626	4.41
44.679	5.29
44.732	6.25
44.785	8.41
44.838	12.25
44.891	10.24
44.944	6.76
44.997	5.76
45.05	4.41
45.103	6.25
45.156	11.56
45.209	9.00
45.262	10.89
45.315	10.24
45.368	3.61
45.421	6.76
45.474	7.84
45.527	9.61
45.58	8.41
45.633	5.76
45.686	8.41
45.739	10.89
45.792	7.29
45.845	6.25
45.898	6.76
45.951	8.41
46.004	6.76
46.057	6.76
46.11	10.24
46.163	8.41
46.216	9.61
46.269	10.24
46.322	10.89
46.375	12.96
46.428	11.56
46.481	10.89
46.534	13.69
46.587	14.44
46.64	16.81
46.693	20.25
46.746	21.16
46.799	22.09
46.852	20.25
46.905	17.64
46.958	12.25
47.011	14.44
47.064	21.16
47.117	28.09
47.17	21.16
47.223	22.09
47.276	25.00
47.329	29.16
47.382	32.49
47.435	44.89
47.488	60.84
47.541	65.61
47.594	88.36
47.647	108.16
47.7	123.21
47.753	176.89
47.806	222.01
47.859	268.96
47.912	334.89
47.965	376.36
48.018	368.64
48.071	316.84
48.124	320.41
48.177	243.36
48.23	184.96
48.283	169.00
48.336	132.25
48.389	86.49
48.442	67.24
48.495	57.76
48.548	42.25
48.601	34.81
48.654	36.00
48.707	23.04
48.76	22.09
48.813	16.81
48.866	20.25
48.919	20.25
48.972	12.96
49.025	17.64
49.078	16.00
49.131	16.81
49.184	12.96
49.237	10.24
49.29	21.16
49.343	11.56
49.396	10.89
49.449	16.81
49.502	10.89
49.555	9.00
49.608	8.41
49.661	5.29
49.714	6.25
49.767	8.41
49.82	10.24
49.873	6.25
49.926	5.76
49.979	11.56
50.032	8.41
50.085	6.76
50.138	6.25
50.191	6.76
50.244	14.44
50.297	9.61
50.35	4.00
50.403	9.61
50.456	7.84
50.509	7.29
50.562	5.29
50.615	5.29
50.668	8.41
50.721	8.41
50.774	9.61
50.827	12.25
50.88	6.25
50.933	4.41
50.986	7.84
51.039	7.29
51.092	6.25
51.145	6.25
51.198	5.29
51.251	6.76
51.304	4.00
51.357	2.25
51.41	6.25
51.463	7.29
51.516	5.29
51.569	2.89
51.622	2.56
51.675	4.84
51.728	5.76
51.781	6.76
51.834	5.76
51.887	7.84
51.94	11.56
51.993	9.00
52.046	11.56
52.099	10.89
52.152	11.56
52.205	10.24
52.258	6.76
52.311	5.29
52.364	8.41
52.417	12.25
52.47	10.24
52.523	10.89
52.576	16.81
52.629	20.25
52.682	22.09
52.735	12.96
52.788	11.56
52.841	13.69
52.894	11.56
52.947	12.96
53	16.81
53.053	19.36
53.106	24.01
53.159	27.04
53.212	23.04
53.265	33.64
53.318	39.69
53.371	54.76
53.424	51.84
53.477	56.25
53.53	70.56
53.583	86.49
53.636	104.04
53.689	151.29
53.742	161.29
53.795	179.56
53.848	219.04
53.901	213.16
53.954	237.16
54.007	190.44
54.06	219.04
54.113	182.25
54.166	169.00
54.219	158.76
54.272	166.41
54.325	176.89
54.378	129.96
54.431	118.81
54.484	108.16
54.537	104.04
54.59	98.01
54.643	88.36
54.696	102.01
54.749	112.36
54.802	110.25
54.855	144.00
54.908	187.69
54.961	210.25
55.014	204.49
55.067	201.64
55.12	201.64
55.173	144.00
55.226	141.61
55.279	110.25
55.332	79.21
55.385	67.24
55.438	56.25
55.491	56.25
55.544	37.21
55.597	38.44
55.65	24.01
55.703	32.49
55.756	30.25
55.809	23.04
55.862	21.16
55.915	22.09
55.968	17.64
56.021	16.81
56.074	15.21
56.127	19.36
56.18	20.25
56.233	17.64
56.286	20.25
56.339	19.36
56.392	20.25
56.445	29.16
56.498	31.36
56.551	32.49
56.604	29.16
56.657	21.16
56.71	27.04
56.763	23.04
56.816	19.36
56.869	11.56
56.922	10.89
56.975	14.44
57.028	8.41
57.081	8.41
57.134	10.89
57.187	7.29
57.24	9.61
57.293	10.89
57.346	7.84
57.399	5.76
57.452	5.29
57.505	12.25
57.558	12.96
57.611	6.76
57.664	5.76
57.717	7.29
57.77	4.84
57.823	3.61
57.876	5.76
57.929	4.84
57.982	4.41
58.035	4.00
58.088	8.41
58.141	7.84
58.194	5.76
58.247	6.76
58.3	2.56
58.353	1.96
58.406	3.61
58.459	4.84
58.512	4.41
58.565	10.24
58.618	11.56
58.671	8.41
58.724	9.00
58.777	7.29
58.83	7.29
58.883	4.41
58.936	6.76
58.989	3.61
59.042	2.89
59.095	2.89
59.148	5.29
59.201	5.76
59.254	5.29
59.307	5.76
59.36	4.41
59.413	4.84
59.466	3.24
59.519	2.89
59.572	1.21
59.625	1.00
59.678	7.29
59.731	11.56
59.784	4.84
59.837	4.00
59.89	3.24
59.943	4.84
59.996	3.24
60.049	2.89
60.102	6.76
60.155	12.96
60.208	6.25
60.261	4.00
60.314	2.89
60.367	4.00
60.42	6.76
60.473	4.84
60.526	1.00
60.579	4.84
60.632	2.25
60.685	10.24
60.738	10.24
60.791	2.25
60.844	7.29
60.897	9.00
60.95	6.76
61.003	6.76
61.056	12.25
61.109	5.29
61.162	8.41
61.215	12.96
61.268	12.96
61.321	8.41
61.374	10.24
61.427	8.41
61.48	10.24
61.533	7.84
61.586	10.24
61.639	18.49
61.692	14.44
61.745	16.81
61.798	28.09
61.851	34.81
61.904	37.21
61.957	49.00
62.01	44.89
62.063	50.41
62.116	46.24
62.169	57.76
62.222	64.00
62.275	68.89
62.328	86.49
62.381	96.04
62.434	94.09
62.487	118.81
62.54	123.21
62.593	127.69
62.646	141.61
62.699	146.41
62.752	139.24
62.805	129.96
62.858	106.09
62.911	90.25
62.964	75.69
63.017	65.61
63.07	59.29
63.123	47.61
63.176	36.00
63.229	29.16
63.282	21.16
63.335	20.25
63.388	15.21
63.441	14.44
63.494	17.64
63.547	16.81
63.6	15.21
63.653	13.69
63.706	13.69
63.759	12.25
63.812	13.69
63.865	12.96
63.918	16.81
63.971	16.00
64.024	16.81
64.077	18.49
64.13	17.64
64.183	10.24
64.236	10.24
64.289	10.89
64.342	7.29
64.395	7.29
64.448	9.61
64.501	5.76
64.554	9.00
64.607	6.76
64.66	6.25
64.713	6.76
64.766	5.29
64.819	4.84
64.872	6.76
64.925	6.25
64.978	6.76
65.031	6.25
65.084	6.76
65.137	2.89
65.19	5.29
65.243	7.84
65.296	7.29
65.349	3.61
65.402	6.25
65.455	5.29
65.508	6.76
65.561	5.29
65.614	4.84
65.667	8.41
65.72	7.29
65.773	6.25
65.826	11.56
65.879	6.25
65.932	6.76
65.985	6.25
66.038	5.76
66.091	1.96
66.144	4.00
66.197	4.00
66.25	4.00
66.303	4.84
66.356	1.96
66.409	4.00
66.462	1.21
66.515	6.25
66.568	7.84
66.621	6.25
66.674	8.41
66.727	3.61
66.78	1.44
66.833	5.76
66.886	5.76
66.939	3.24
66.992	4.00
67.045	4.84
67.098	5.76
67.151	7.84
67.204	2.89
67.257	3.24
67.31	5.29
67.363	10.89
67.416	7.84
67.469	10.89
67.522	9.61
67.575	15.21
67.628	7.84
67.681	9.00
67.734	6.76
67.787	6.76
67.84	6.76
67.893	5.76
67.946	10.24
67.999	8.41
68.052	10.24
68.105	14.44
68.158	15.21
68.211	19.36
68.264	16.00
68.317	14.44
68.37	16.81
68.423	23.04
68.476	32.49
68.529	39.69
68.582	46.24
68.635	60.84
68.688	68.89
68.741	67.24
68.794	60.84
68.847	65.61
68.9	75.69
68.953	67.24
69.006	56.25
69.059	57.76
69.112	56.25
69.165	44.89
69.218	34.81
69.271	33.64
69.324	28.09
69.377	19.36
69.43	16.81
69.483	21.16
69.536	27.04
69.589	28.09
69.642	23.04
69.695	29.16
69.748	33.64
69.801	39.69
69.854	40.96
69.907	39.69
69.96	39.69
70.013	54.76
70.066	62.41
70.119	68.89
70.172	57.76
70.225	62.41
70.278	68.89
70.331	68.89
70.384	57.76
70.437	46.24
70.49	44.89
70.543	34.81
70.596	31.36
70.649	30.25
70.702	25.00
70.755	20.25
70.808	13.69
70.861	6.25
70.914	8.41
70.967	7.29
71.02	9.61
71.073	6.76
71.126	5.29
71.179	4.84
71.232	6.76
71.285	6.25
71.338	7.84
71.391	6.25
71.444	2.56
71.497	6.76
71.55	9.00
71.603	4.41
71.656	5.76
71.709	2.25
71.762	2.89
71.815	2.89
71.868	5.76
71.921	9.61
71.974	4.00
72.027	1.96
72.08	4.84
72.133	1.21
72.186	9.00
72.239	4.00
72.292	9.61
72.345	5.76
72.398	4.84
72.451	4.00
72.504	6.25
72.557	7.84
72.61	6.25
72.663	7.84
72.716	4.84
72.769	3.24
72.822	9.61
72.875	2.56
72.928	5.76
72.981	4.00
73.034	4.84
73.087	3.61
73.14	5.76
73.193	4.41
73.246	3.24
73.299	6.76
73.352	3.24
73.405	4.84
73.458	6.76
73.511	4.84
73.564	4.84
73.617	9.00
73.67	12.25
73.723	7.84
73.776	10.89
73.829	10.24
73.882	9.00
73.935	12.96
73.988	12.96
74.041	12.96
74.094	12.96
74.147	9.61
74.2	11.56
74.253	16.81
74.306	21.16
74.359	18.49
74.412	10.89
74.465	16.81
74.518	25.00
74.571	26.01
74.624	31.36
74.677	37.21
74.73	49.00
74.783	53.29
74.836	53.29
74.889	75.69
74.942	88.36
74.995	84.64
75.048	96.04
75.101	98.01
75.154	96.04
75.207	88.36
75.26	75.69
75.313	65.61
75.366	59.29
75.419	54.76
75.472	49.00
75.525	37.21
75.578	28.09
75.631	28.09
75.684	20.25
75.737	18.49
75.79	33.64
75.843	38.44
75.896	33.64
75.949	28.09
76.002	23.04
76.055	24.01
76.108	31.36
76.161	25.00
76.214	19.36
76.267	22.09
76.32	17.64
76.373	14.44
76.426	22.09
76.479	12.25
76.532	10.89
76.585	9.61
76.638	12.25
76.691	9.61
76.744	7.29
76.797	6.76
76.85	10.89
76.903	6.25
76.956	4.84
77.009	6.76
77.062	5.29
77.115	4.84
77.168	0.64
77.221	6.25
77.274	6.76
77.327	5.29
77.38	3.24
77.433	6.76
77.486	3.24
77.539	2.89
77.592	0.16
77.645	6.76
77.698	2.25
77.751	6.76
77.804	9.00
77.857	4.84
77.91	1.00
77.963	4.00
78.016	1.00
78.069	1.96
78.122	1.96
78.175	1.96
78.228	2.25
78.281	4.84
78.334	5.29
78.387	8.41
78.44	5.29
78.493	6.76
78.546	3.61
78.599	0.36
78.652	2.89
78.705	1.69
78.758	4.84
78.811	3.24
78.864	0.64
78.917	3.61
78.97	1.21
79.023	1.69
79.076	1.96
79.129	4.84
79.182	3.61
79.235	3.24
79.288	3.61
79.341	3.24
79.394	5.76
79.447	9.61
79.5	5.29
79.553	4.00
79.606	5.29
79.659	4.00
79.712	4.84
79.765	2.25
79.818	1.44
79.871	2.89
79.924	4.00
